#
#"Run ID"	"S1,1 [Re]"	"S1,1 [Im]"	"Ref.Imp. [Re]"	"Ref.Imp. [Im]"
#----------------------------------------------------------------
1.0000000000000	-0.0048935101200126	-0.0023528570232334	549.99491377313	0.0000000000000
2.0000000000000	-0.0065136419659982	-0.0028298268977771	549.99477647664	0.0000000000000
3.0000000000000	-0.0085695148446760	-0.0028873747002987	549.99470624269	0.0000000000000
4.0000000000000	-0.010969716298608	-0.0021976462711047	549.99467827951	0.0000000000000
5.0000000000000	-0.013309389643821	-0.00043119716623593	549.99466497331	0.0000000000000
6.0000000000000	-0.014873019426306	0.0023807032609651	549.99465743955	0.0000000000000
7.0000000000000	-0.015090292859279	0.0056195104949300	549.99465248403	0.0000000000000
8.0000000000000	-0.014047258169143	0.0084066716355052	549.99464885035	0.0000000000000
9.0000000000000	-0.012344315448708	0.010292110504706	549.99464598972	0.0000000000000
10.000000000000	-0.010535294236611	0.011320915129226	549.99464358223	0.0000000000000
11.000000000000	-0.0089194151580146	0.011746419641474	549.99464147673	0.0000000000000
12.000000000000	-0.0074673381093587	-0.0061801642714028	549.99531076787	0.0000000000000
13.000000000000	-0.0098669185139314	-0.0068907354331886	549.99536551428	0.0000000000000
14.000000000000	-0.012966799540603	-0.0070211843332776	549.99538144289	0.0000000000000
15.000000000000	-0.016624959925537	-0.0060688411112590	549.99538523305	0.0000000000000
16.000000000000	-0.020278928214425	-0.0035191811937620	549.99538477895	0.0000000000000
17.000000000000	-0.022886911283836	0.00066833432535879	549.99538294660	0.0000000000000
18.000000000000	-0.023517182362130	0.0056535047717831	549.99538089024	0.0000000000000
19.000000000000	-0.022163300526880	0.010123286240287	549.99537905305	0.0000000000000
20.000000000000	-0.019654131540356	0.013282023091537	549.99537757049	0.0000000000000
21.000000000000	-0.016874932017142	0.015104896979216	549.99537644820	0.0000000000000
22.000000000000	-0.014334651404379	0.015945868952232	549.99537563386	0.0000000000000
23.000000000000	-0.010570296743488	-0.010936743551224	549.99516978473	0.0000000000000
24.000000000000	-0.013977938389098	-0.011879638174619	549.99507950038	0.0000000000000
25.000000000000	-0.018331572785389	-0.012026500249646	549.99509545427	0.0000000000000
26.000000000000	-0.023466022130191	-0.010670765416765	549.99510256871	0.0000000000000
27.000000000000	-0.028591846792868	-0.0070980794674860	549.99510409526	0.0000000000000
28.000000000000	-0.032291881210789	-0.0012296036706623	549.99510328547	0.0000000000000
29.000000000000	-0.033253858679940	0.0057618928638467	549.99510169706	0.0000000000000
30.000000000000	-0.031445797516788	0.012090150680473	549.99509998775	0.0000000000000
31.000000000000	-0.027985709407959	0.016626472246652	549.99509840170	0.0000000000000
32.000000000000	-0.024113441278531	0.019295298021152	549.99509701320	0.0000000000000
33.000000000000	-0.020529803024490	0.020576588331565	549.99509582201	0.0000000000000
34.000000000000	-0.014164289215923	-0.016167476609424	549.99510704997	0.0000000000000
35.000000000000	-0.018664565952911	-0.017419863210385	549.99509273894	0.0000000000000
36.000000000000	-0.024383503377979	-0.017642514371351	549.99508580743	0.0000000000000
37.000000000000	-0.031127561235205	-0.015950928884932	549.99508239795	0.0000000000000
38.000000000000	-0.037957671498681	-0.011407376948962	549.99508065410	0.0000000000000
39.000000000000	-0.043049584293312	-0.0038654010334991	549.99507932036	0.0000000000000
40.000000000000	-0.044705199490326	0.0053430375827848	549.99507813161	0.0000000000000
41.000000000000	-0.042680873913310	0.013914096560192	549.99507707385	0.0000000000000
42.000000000000	-0.038307513061725	0.020254300530364	549.99507615985	0.0000000000000
43.000000000000	-0.033192277539463	0.024133334305781	549.99507538836	0.0000000000000
44.000000000000	-0.028374460629177	0.026099212862320	549.99507475244	0.0000000000000
45.000000000000	-0.017860784751756	-0.021923738292132	549.99542784128	0.0000000000000
46.000000000000	-0.023392304550781	-0.023564629120643	549.99543951972	0.0000000000000
47.000000000000	-0.030476519079466	-0.023988468635371	549.99545394217	0.0000000000000
48.000000000000	-0.038885927959918	-0.022145508622218	549.99545650113	0.0000000000000
49.000000000000	-0.047571283754075	-0.016889823243692	549.99545623440	0.0000000000000
50.000000000000	-0.054443432931297	-0.0078418757277088	549.99545531829	0.0000000000000
51.000000000000	-0.057285051959589	0.0036038189727838	549.99545432297	0.0000000000000
52.000000000000	-0.055483564085750	0.014707305827566	549.99545340527	0.0000000000000
53.000000000000	-0.050412557760418	0.023308424005139	549.99545259300	0.0000000000000
54.000000000000	-0.044084932705233	0.028820781307848	549.99545188041	0.0000000000000
55.000000000000	-0.037917988490376	0.031803729338222	549.99545125246	0.0000000000000
56.000000000000	-0.021488068707200	-0.028048188198056	549.99548992007	0.0000000000000
57.000000000000	-0.027972094082562	-0.030124014271146	549.99550688082	0.0000000000000
58.000000000000	-0.036281399305929	-0.030942761053234	549.99547975245	0.0000000000000
59.000000000000	-0.046313993184983	-0.029313951070366	549.99546411883	0.0000000000000
60.000000000000	-0.057034607387407	-0.023836716879696	549.99545418982	0.0000000000000
61.000000000000	-0.066200930377165	-0.013763637813368	549.99544742152	0.0000000000000
62.000000000000	-0.071070485415656	-0.00021906044049402	549.99544254061	0.0000000000000
63.000000000000	-0.070313924249363	0.013768009527286	549.99543883986	0.0000000000000
64.000000000000	-0.065062500735011	0.025279020710252	549.99543589389	0.0000000000000
65.000000000000	-0.057650083609191	0.033134687224806	549.99543345182	0.0000000000000
66.000000000000	-0.050000458512465	0.037708513279111	549.99543137286	0.0000000000000
67.000000000000	-0.026241530527701	-0.034887913702751	549.99528990130	0.0000000000000
68.000000000000	-0.033988011924771	-0.037309787894228	549.99523330054	0.0000000000000
69.000000000000	-0.043917297412839	-0.038213492727282	549.99521898638	0.0000000000000
70.000000000000	-0.055788666543397	-0.036230370410251	549.99521189557	0.0000000000000
71.000000000000	-0.068428886820385	-0.029796170324858	549.99520865121	0.0000000000000
72.000000000000	-0.079301913672941	-0.018099331551141	549.99520709693	0.0000000000000
73.000000000000	-0.085346446834665	-0.0023102335791082	549.99520623031	0.0000000000000
74.000000000000	-0.084945316193049	0.014227776930325	549.99520565202	0.0000000000000
75.000000000000	-0.079198698468047	0.028136210381044	549.99520521160	0.0000000000000
76.000000000000	-0.070695697790748	0.037894058714685	549.99520484194	0.0000000000000
77.000000000000	-0.061703259135674	0.043781509672413	549.99520450920	0.0000000000000
78.000000000000	-0.030092848373949	-0.041761708296075	549.99503726076	0.0000000000000
79.000000000000	-0.038770936055584	-0.044738226557483	549.99488423629	0.0000000000000
80.000000000000	-0.049863675895058	-0.046163204387895	549.99484021536	0.0000000000000
81.000000000000	-0.063271747020474	-0.044619493390150	549.99482496065	0.0000000000000
82.000000000000	-0.077955274673797	-0.038344875963614	549.99481838657	0.0000000000000
83.000000000000	-0.091378294913841	-0.026134848388110	549.99481538070	0.0000000000000
84.000000000000	-0.10007360928099	-0.0087510935963766	549.99481400464	0.0000000000000
85.000000000000	-0.10168347964182	0.010563765182466	549.99481339592	0.0000000000000
86.000000000000	-0.096665129595234	0.027836832761200	549.99481314465	0.0000000000000
87.000000000000	-0.087617507943450	0.040718986305064	549.99481305152	0.0000000000000
88.000000000000	-0.077281660124380	0.049008221859634	549.99481301711	0.0000000000000
89.000000000000	-0.034557196917771	-0.048977343351393	549.99480457217	0.0000000000000
90.000000000000	-0.044339406800749	-0.052386444450516	549.99484944918	0.0000000000000
91.000000000000	-0.056763547433466	-0.054146048079164	549.99485548160	0.0000000000000
92.000000000000	-0.071791245407329	-0.052737420873329	549.99485688424	0.0000000000000
93.000000000000	-0.088380105531378	-0.046274221175529	549.99485702808	0.0000000000000
94.000000000000	-0.10396748447919	-0.033319859683852	549.99485672501	0.0000000000000
95.000000000000	-0.11484499362568	-0.014366325407614	549.99485625553	0.0000000000000
96.000000000000	-0.11815106471417	0.0073949965326964	549.99485573248	0.0000000000000
97.000000000000	-0.11383546435195	0.027645925817711	549.99485520949	0.0000000000000
98.000000000000	-0.10442295867511	0.043392306260649	549.99485469952	0.0000000000000
99.000000000000	-0.092982612457954	0.053987681720603	549.99485420734	0.0000000000000
100.00000000000	-0.039349122970882	-0.056320357451607	549.99519203133	0.0000000000000
101.00000000000	-0.050158624468524	-0.060133656690835	549.99508934900	0.0000000000000
102.00000000000	-0.063849999564490	-0.062174806897243	549.99504328211	0.0000000000000
103.00000000000	-0.080378397513410	-0.060883211183458	549.99502417454	0.0000000000000
104.00000000000	-0.098730812762014	-0.054270865319017	549.99501641075	0.0000000000000
105.00000000000	-0.11633295064821	-0.040743718199922	549.99501325432	0.0000000000000
106.00000000000	-0.12935554167549	-0.020539323785169	549.99501194327	0.0000000000000
107.00000000000	-0.13452403476233	0.0033514581180611	549.99501136270	0.0000000000000
108.00000000000	-0.13127671449786	0.026378480140436	549.99501106675	0.0000000000000
109.00000000000	-0.12189199415355	0.045029645043203	549.99501088105	0.0000000000000
110.00000000000	-0.10962900742055	0.058136664005456	549.99501074140	0.0000000000000
111.00000000000	-0.043937611812035	-0.063893478816204	549.99510246421	0.0000000000000
112.00000000000	-0.055792185506923	-0.068113388136767	549.99513338545	0.0000000000000
113.00000000000	-0.070709508663278	-0.070504470244710	549.99515411206	0.0000000000000
114.00000000000	-0.088666317059323	-0.069433627060816	549.99516720005	0.0000000000000
115.00000000000	-0.10871156700685	-0.062856366427267	549.99517413437	0.0000000000000
116.00000000000	-0.12832331455797	-0.049020501962711	549.99517782700	0.0000000000000
117.00000000000	-0.14361702733722	-0.027879985253981	549.99517983729	0.0000000000000
118.00000000000	-0.15097157583974	-0.0021646542439232	549.99518096803	0.0000000000000
119.00000000000	-0.14926290372826	0.023514816649888	549.99518162799	0.0000000000000
120.00000000000	-0.14040475399577	0.045150548908873	549.99518203124	0.0000000000000
121.00000000000	-0.12770203647253	0.061034211114942	549.99518228969	0.0000000000000
122.00000000000	-0.048754179674143	-0.071684748501139	549.99461091039	0.0000000000000
123.00000000000	-0.061709471408639	-0.076344506756852	549.99428974659	0.0000000000000
124.00000000000	-0.077895969166663	-0.079056993006908	549.99421563587	0.0000000000000
125.00000000000	-0.097337172338696	-0.078155583479096	549.99418443804	0.0000000000000
126.00000000000	-0.11910154022741	-0.071518947947275	549.99416896857	0.0000000000000
127.00000000000	-0.14069227382634	-0.057269889861519	549.99416009780	0.0000000000000
128.00000000000	-0.15815245118025	-0.035150151730202	549.99415433796	0.0000000000000
129.00000000000	-0.16760368364459	-0.0076035038444726	549.99415017778	0.0000000000000
130.00000000000	-0.16738113913122	0.020640209686095	549.99414689451	0.0000000000000
131.00000000000	-0.15906975453445	0.045194605844584	549.99414412159	0.0000000000000
132.00000000000	-0.14599989872341	0.063825977194151	549.99414166895	0.0000000000000
133.00000000000	-0.053628246096432	-0.079129568799436	549.99534173465	0.0000000000000
134.00000000000	-0.067541016546320	-0.084153956159331	549.99529152899	0.0000000000000
135.00000000000	-0.084812598768188	-0.087133371317206	549.99525333837	0.0000000000000
136.00000000000	-0.10551186103944	-0.086400750120016	549.99523342118	0.0000000000000
137.00000000000	-0.12871910673118	-0.079813013377148	549.99522389297	0.0000000000000
138.00000000000	-0.15201396265476	-0.065405647532388	549.99521906806	0.0000000000000
139.00000000000	-0.17147459943994	-0.042721382351551	549.99521634498	0.0000000000000
140.00000000000	-0.18302653223598	-0.013969025983151	549.99521460319	0.0000000000000
141.00000000000	-0.18464146314872	0.016332610055279	549.99521335016	0.0000000000000
142.00000000000	-0.17741163928033	0.043535678274355	549.99521235332	0.0000000000000
143.00000000000	-0.16450786807007	0.064909532204659	549.99521150721	0.0000000000000
144.00000000000	-0.058343888500349	-0.086637992123446	549.99476905858	0.0000000000000
145.00000000000	-0.073203540269726	-0.092055392464255	549.99472951862	0.0000000000000
146.00000000000	-0.091601343580933	-0.095358533462582	549.99472291687	0.0000000000000
147.00000000000	-0.11358759964621	-0.094839155302415	549.99472071298	0.0000000000000
148.00000000000	-0.13828657170723	-0.088312432981254	549.99471976591	0.0000000000000
149.00000000000	-0.16329980667181	-0.073756561295710	549.99471957871	0.0000000000000
150.00000000000	-0.18474293134824	-0.050530128202591	549.99471973593	0.0000000000000
151.00000000000	-0.19840330755469	-0.020590876896277	549.99471999324	0.0000000000000
152.00000000000	-0.20186959390957	0.011666809848328	549.99472023061	0.0000000000000
153.00000000000	-0.19581828415438	0.041412794767899	549.99472041322	0.0000000000000
154.00000000000	-0.18323045378191	0.065486156380059	549.99472053096	0.0000000000000
155.00000000000	-0.062870006779019	-0.094064195369609	549.99494470416	0.0000000000000
156.00000000000	-0.078600787138162	-0.099838958921055	549.99469590071	0.0000000000000
157.00000000000	-0.097982462530043	-0.10346219504000	549.99472695832	0.0000000000000
158.00000000000	-0.12110915053299	-0.10321077190877	549.99473814978	0.0000000000000
159.00000000000	-0.14712873384546	-0.096886227377346	549.99474458433	0.0000000000000
160.00000000000	-0.17375927525197	-0.082388055030807	549.99474868637	0.0000000000000
161.00000000000	-0.19719429264492	-0.058871382556225	549.99475143266	0.0000000000000
162.00000000000	-0.21305171895640	-0.028044811480464	549.99475337125	0.0000000000000
163.00000000000	-0.21859324776609	0.0059130503372607	549.99475483558	0.0000000000000
164.00000000000	-0.21403902650537	0.038048901885976	549.99475601756	0.0000000000000
165.00000000000	-0.20211051680536	0.064807644189708	549.99475702576	0.0000000000000
166.00000000000	-0.067284207541509	-0.10134736965021	549.99498200578	0.0000000000000
167.00000000000	-0.083741250196040	-0.10747156632987	549.99504428016	0.0000000000000
168.00000000000	-0.10401535328382	-0.11145995760437	549.99505545884	0.0000000000000
169.00000000000	-0.12819422614090	-0.11155657283246	549.99505747840	0.0000000000000
170.00000000000	-0.15548716267410	-0.10554424483495	549.99505735380	0.0000000000000
171.00000000000	-0.18369323028116	-0.091258218811429	549.99505678267	0.0000000000000
172.00000000000	-0.20905249474002	-0.067695701877429	549.99505620315	0.0000000000000
173.00000000000	-0.22718797458433	-0.036224282487883	549.99505570880	0.0000000000000
174.00000000000	-0.23499724167701	-0.00080081502743541	549.99505530381	0.0000000000000
175.00000000000	-0.23222741543914	0.033576379458052	549.99505497185	0.0000000000000
176.00000000000	-0.22127779273872	0.062987950875007	549.99505469606	0.0000000000000
177.00000000000	-0.071608881460905	-0.10824681092116	549.99503986341	0.0000000000000
178.00000000000	-0.089140788139137	-0.11476686448517	549.99514370315	0.0000000000000
179.00000000000	-0.11065714409481	-0.11898657977129	549.99515368363	0.0000000000000
180.00000000000	-0.13623496227348	-0.11909518474196	549.99515259736	0.0000000000000
181.00000000000	-0.16503953049218	-0.11280576096806	549.99515188931	0.0000000000000
182.00000000000	-0.19482689373919	-0.097869212769269	549.99515151223	0.0000000000000
183.00000000000	-0.22168464637066	-0.073252388521306	549.99515125853	0.0000000000000
184.00000000000	-0.24108559347801	-0.040378458507506	549.99515107635	0.0000000000000
185.00000000000	-0.24982090104824	-0.0032745755751407	549.99515096319	0.0000000000000
186.00000000000	-0.24755686818697	0.032921286611973	549.99515092409	0.0000000000000
187.00000000000	-0.23668152819254	0.064133417271750	549.99515096044	0.0000000000000
